time (s)	magX	magY	magZ
4236.758793	-54.178841	221.098785	-847.106934
4236.762129	-54.763298	205.493851	-858.562256
4236.765458	-55.581535	190.765625	-869.140808
4236.768801	-56.224430	175.628296	-879.953308
4236.772125	-57.159554	159.380478	-890.590271
4236.775456	-58.620689	142.548218	-899.473938
4236.778789	-59.146698	126.534187	-910.286438
4236.782125	-59.964931	109.175919	-917.650513
4236.785453	-60.958504	92.694328	-924.956116
4236.788792	-61.952072	74.926941	-930.859192
4236.792128	-62.828754	56.867332	-936.879089
4236.795498	-64.231445	39.392166	-943.892456
4236.800088	-66.393921	3.039158	-951.957886
4236.803013	-68.030396	-16.364700	-955.464661
4236.806348	-69.199303	-34.248978	-956.984253
4236.809668	-70.543541	-52.951492	-957.977783
4236.813003	-72.413788	-71.361771	-957.977783
4236.815907	-74.050262	-88.778488	-956.808838
4236.819237	-76.095848	-106.545876	-953.769653
4236.822643	-77.206314	-123.553482	-951.841064
4236.825882	-79.719460	-140.853302	-947.749878
4236.829232	-81.005257	-157.451782	-943.132690
4236.832114	-82.583282	-174.108704	-935.125610
4236.835458	-84.336647	-189.888947	-930.976013
4236.838786	-85.330215	-205.201630	-923.144348
4236.842124	-87.375801	-219.754532	-913.968445
4236.845454	-88.720047	-234.658096	-905.786133
4236.848818	-90.940971	-247.282288	-895.908813
4236.852116	-92.752777	-260.432495	-885.973083
4236.855451	-93.337234	-272.238434	-874.459351
4236.858787	-94.915253	-284.219757	-864.173035
4236.862118	-96.434830	-295.675049	-849.912354
4236.865450	-97.369957	-306.545868	-836.353027
4236.868784	-97.486847	-316.598480	-824.138000
4236.872114	-98.655754	-326.475739	-811.864380
4236.875454	-100.233780	-335.359436	-797.136169
4236.878786	-100.000000	-342.840424	-782.933960
4236.882120	-100.467560	-350.555237	-767.738159
4236.885448	-100.935127	-357.802460	-753.419067
4236.888787	-100.642899	-364.874329	-739.509033
4236.892131	-101.110458	-370.952667	-723.670410
4236.895447	-101.519585	-376.271179	-708.299255
4236.898785	-101.344238	-382.115723	-691.583862
4236.902118	-101.168907	-386.031555	-676.212769
4236.906739	-100.701347	-393.863251	-645.470459
4236.909659	-100.759796	-397.253052	-628.229065
4236.912998	-100.526009	-400.000000	-612.565735
4236.916374	-99.941551	-401.987122	-596.668640
4236.919695	-100.350677	-403.857361	-581.706604
4236.922648	-100.175331	-405.143219	-565.575684
4236.925870	-100.409111	-406.429016	-550.204590
4236.929219	-100.058449	-408.182343	-533.313843
4236.932541	-99.473991	-408.474579	-518.351868
4236.935482	-98.597313	-408.825256	-503.097595
4236.938780	-98.305084	-408.065460	-487.784912
4236.942105	-98.597313	-406.955017	-472.530701
4236.945443	-98.363533	-406.487427	-456.984222
4236.948773	-98.889534	-405.201630	-443.015778
4236.952106	-98.246643	-403.857361	-429.456482
4236.955446	-97.837517	-401.636444	-414.436005
4236.958776	-97.954407	-400.000000	-400.935120
4236.962104	-97.194626	-397.603760	-387.551147
4236.965434	-97.486847	-396.610168	-373.991821
4236.968769	-97.954407	-393.921692	-361.133850
4236.972100	-97.837517	-390.882507	-348.217407
4236.975436	-97.545296	-387.901794	-336.236115
4236.978793	-97.486847	-384.745758	-323.845703
4236.982105	-97.253067	-381.706604	-312.682648
4236.985497	-96.668610	-378.959686	-301.461121
4236.988778	-96.960846	-375.862061	-291.057861
4236.992103	-96.259499	-372.530670	-281.005249
4236.995439	-96.025719	-368.790161	-270.543549
4236.998773	-95.558151	-365.225006	-260.490936
4237.002107	-94.739922	-362.127411	-252.542374
4237.005431	-94.739922	-358.796021	-243.132660
4237.008774	-93.746346	-354.763306	-235.710114
4237.012102	-93.571014	-351.081238	-226.709534
4237.016293	-92.986557	-344.009338	-208.825256
4237.019645	-91.934547	-340.444183	-201.870255
4237.023071	-91.817650	-337.288147	-195.441254
4237.026364	-90.999420	-333.080078	-187.317352
4237.029248	-90.824081	-329.339569	-180.713028
4237.032593	-89.246056	-325.715942	-174.517822
4237.035858	-89.187607	-322.209229	-167.971939
4237.039186	-88.661598	-318.644073	-162.361191
4237.042537	-87.609581	-315.663361	-155.523087
4237.045427	-87.083580	-311.981293	-148.684982
4237.048768	-86.382233	-307.948578	-143.775574
4237.052095	-86.206894	-304.967865	-138.047928
4237.055431	-85.271767	-301.052032	-132.846283
4237.058764	-85.505554	-297.954407	-127.118645
4237.062098	-84.570427	-294.038574	-121.157219
4237.065430	-84.278198	-290.414948	-117.007599
4237.068763	-83.401520	-287.726471	-111.864410
4237.072108	-83.109299	-284.102875	-107.130341
4237.075427	-82.758621	-281.005249	-103.389832
4237.078761	-82.758621	-277.966095	-98.305084
4237.082096	-81.940392	-274.517822	-94.389252
4237.085426	-81.706604	-271.303314	-89.830505
4237.088758	-81.355927	-268.673309	-85.973114
4237.092135	-81.589714	-264.991241	-82.466393
4237.095436	-81.180595	-261.659851	-78.901222
4237.098758	-80.888367	-259.614258	-74.985390
4237.102096	-80.596146	-257.042664	-70.660431
4237.105429	-80.362358	-253.886597	-67.796616
4237.108763	-80.187019	-250.379898	-64.231445
4237.112089	-80.303917	-247.516083	-61.484509
4237.115453	-79.602570	-245.295135	-58.971363
4237.118761	-79.427238	-242.957336	-56.282879
4237.123379	-79.076561	-238.340164	-50.672119
4237.126300	-78.959671	-236.060791	-48.275860
4237.129691	-78.258331	-233.080078	-45.528931
4237.133038	-78.199883	-231.268265	-43.015781
4237.136347	-78.550552	-229.514908	-40.268848
4237.139187	-77.732315	-226.884872	-38.924606
4237.142512	-77.615425	-225.073059	-37.112801
4237.145842	-77.440094	-222.852142	-34.190533
4237.149184	-77.673874	-221.332550	-32.963181
4237.152512	-77.264755	-218.527176	-31.560490
4237.155420	-76.504967	-217.124481	-30.157801
4237.158767	-76.446518	-215.721802	-28.345997
4237.162085	-75.803627	-213.383987	-26.475746
4237.165423	-75.686737	-212.799530	-25.014612
4237.168758	-75.394508	-210.227936	-24.254822
4237.172087	-74.751610	-208.825256	-21.858562
4237.175415	-74.225601	-207.422562	-21.040327
4237.178753	-74.576271	-206.370544	-19.462303
4237.182087	-74.400940	-204.617187	-18.468731
4237.185414	-74.108711	-202.805374	-16.130919
4237.188778	-73.758034	-201.928680	-15.955583
4237.192088	-73.407364	-200.701355	-14.143775
4237.195453	-73.465813	-198.655762	-13.676212
4237.198756	-73.348923	-198.129745	-12.507306
4237.202093	-73.056694	-196.376389	-11.046172
4237.205421	-72.706017	-194.915253	-10.344828
4237.208746	-72.881355	-194.213913	-9.643483
4237.212082	-72.881355	-192.285217	-8.533022
4237.215419	-72.881355	-191.759201	-7.071887
4237.218744	-72.530678	-190.590302	-6.078317
4237.222081	-72.413788	-189.129166	-5.727644
4237.225419	-72.530678	-188.077148	-5.493863
4237.228745	-72.063118	-187.492691	-3.740503
4237.233431	-72.530678	-185.680893	-1.753361
4237.236350	-72.121567	-184.511978	-1.402689
4237.239715	-72.180008	-183.927521	-0.642899
4237.242949	-72.004677	-182.524841	0.467563
4237.246290	-71.770897	-181.414383	1.987142
4237.249172	-71.829338	-181.063705	1.987142
4237.252500	-72.296898	-180.946808	2.162478
4237.255832	-72.063118	-179.836349	2.746932
4237.259177	-71.537109	-179.018112	3.331385
4237.262497	-71.887787	-178.199890	3.682057
4237.265411	-72.355347	-178.199890	3.682057
4237.268751	-72.238457	-178.375214	4.324956
4237.272075	-72.296898	-176.914078	4.675628
4237.275405	-72.063118	-177.790756	4.558738
4237.278796	-72.472237	-177.089417	4.208066
4237.282108	-72.764465	-176.621857	5.026300
4237.285409	-72.589127	-176.563416	4.967855
4237.288753	-72.004677	-176.738754	4.675628
4237.292077	-72.004677	-176.621857	5.084745
4237.295408	-72.530678	-176.037415	4.558738
4237.298744	-72.822914	-176.212738	4.208066
4237.302079	-72.822914	-176.388077	5.260082
4237.305410	-72.121567	-176.388077	5.026300
4237.308740	-72.589127	-176.504974	3.682057
4237.312073	-72.764465	-176.621857	4.149620
4237.315408	-72.413788	-176.446518	3.915838
4237.318741	-72.296898	-176.972534	3.974284
4237.322077	-72.939804	-176.914078	3.682057
4237.325407	-72.121567	-177.264755	3.389831
4237.328739	-71.946228	-177.206314	3.974284
4237.332088	-72.530678	-178.082993	3.331385
4237.335401	-71.770897	-178.375214	3.506721
4237.338740	-72.180008	-178.725891	3.214494
4237.342982	-72.764465	-178.959671	2.220923
4237.346272	-72.589127	-180.537704	2.104033
4237.349582	-72.647568	-179.719467	2.454705
4237.352912	-72.296898	-180.654587	2.045588
4237.356273	-72.881355	-180.713028	1.636470
4237.359156	-72.706017	-181.180603	0.935126
4237.362511	-72.822914	-181.881943	0.526008
4237.365858	-73.173584	-182.583282	0.818235
4237.369233	-73.465813	-183.459961	-0.058445
4237.372079	-73.348923	-184.102875	-1.285798
4237.375406	-73.582703	-184.219757	-0.935126
4237.378732	-74.284050	-185.330215	-1.402689
4237.382067	-74.576271	-186.791351	-2.513150
4237.385396	-74.985390	-187.375809	-3.156049
4237.388734	-74.926941	-188.427811	-3.740503
4237.392065	-75.102280	-189.129166	-4.500292
4237.395392	-75.569847	-190.590302	-4.850964
4237.398735	-75.511398	-191.116302	-4.850964
4237.402064	-76.037407	-191.934540	-6.662770
4237.405401	-76.680305	-193.454117	-8.299240
4237.408725	-76.797195	-194.973694	-9.877264
4237.412098	-77.556984	-196.668610	-10.227938
4237.415394	-77.556984	-197.428406	-10.870836
4237.418727	-77.790764	-199.181763	-11.689071
4237.422060	-78.082993	-200.409119	-13.734658
4237.425399	-78.375221	-201.811813	-15.604909
4237.428724	-78.258331	-203.565170	-16.481590
4237.432060	-79.427238	-205.493851	-18.468731
4237.435393	-79.018112	-206.955002	-19.170076
4237.438725	-79.193459	-208.240799	-20.806547
4237.442086	-79.485680	-209.994156	-22.209234
4237.445395	-79.894798	-211.630630	-24.079485
4237.448725	-80.070129	-213.734650	-25.131502
4237.452917	-80.829926	-217.299820	-29.339567
4237.456276	-81.414375	-219.520752	-30.508474
4237.459571	-81.765053	-221.683212	-32.787846
4237.462950	-82.291061	-224.021027	-34.248978
4237.466274	-81.823502	-225.891281	-36.469902
4237.469174	-82.349503	-227.001770	-37.463470
4237.472504	-82.583282	-229.573349	-39.976620
4237.475846	-82.933960	-231.852722	-42.197548
4237.479140	-83.167740	-234.365875	-45.353596
4237.482056	-83.752190	-236.411453	-47.165401
4237.485386	-85.096436	-238.164810	-48.977203
4237.488725	-85.271767	-241.203979	-51.431911
4237.492052	-84.921097	-243.307999	-53.185272
4237.495389	-85.973114	-244.944473	-56.633549
4237.498755	-86.206894	-248.100525	-59.205143
4237.502052	-87.200470	-250.789017	-62.536526
4237.505389	-87.258911	-253.185272	-65.049675
4237.508723	-88.194038	-255.581528	-68.381065
4237.512055	-89.246056	-257.685577	-70.835770
4237.515384	-90.064285	-260.490936	-74.167160
4237.518715	-90.531853	-263.296326	-77.206314
4237.522054	-91.057861	-266.335480	-81.063705
4237.525388	-91.700760	-269.316193	-85.154877
4237.528721	-92.402107	-272.530670	-88.603157
4237.532049	-93.220345	-274.693146	-92.518997
4237.535398	-94.155464	-277.966095	-96.259499
4237.538724	-95.149033	-281.005249	-101.636467
4237.542068	-95.908829	-284.687317	-105.435417
4237.545384	-96.434830	-288.135590	-110.520157
4237.548713	-97.136177	-292.051422	-115.078903
4237.552054	-98.421974	-294.506134	-120.981888
4237.555377	-99.473991	-298.129761	-126.417305
4237.560013	-101.110458	-305.201630	-136.879013
4237.562930	-102.045586	-308.649933	-142.957336
4237.566267	-103.097603	-312.331970	-148.977203
4237.569634	-103.740501	-316.014038	-155.756866
4237.572980	-104.091179	-319.403870	-162.478073
4237.575844	-105.552307	-323.495026	-169.257751
4237.579148	-105.669197	-326.534210	-175.920517
4237.582485	-107.130341	-329.982483	-183.693741
4237.585838	-107.656334	-333.839874	-190.531845
4237.589136	-109.117470	-337.814148	-198.480408
4237.592046	-109.234367	-341.203979	-206.195206
4237.595381	-110.987724	-345.002899	-214.377548
4237.598711	-111.163071	-348.509644	-223.085907
4237.602043	-112.331978	-352.074829	-231.560486
4237.605377	-113.091751	-355.172424	-240.444183
4237.608711	-114.085327	-359.322021	-248.509644
4237.612044	-115.254234	-362.770325	-257.451782
4237.615378	-116.014030	-365.984802	-266.744598
4237.618713	-117.124489	-369.549957	-277.732330
4237.622046	-118.644073	-373.115143	-287.609589
4237.625377	-119.696083	-376.095856	-297.603760
4237.628768	-120.748100	-378.842773	-308.357697
4237.632039	-122.676804	-382.349518	-318.644073
4237.635376	-123.611923	-386.323792	-329.631805
4237.638706	-125.540611	-388.661591	-341.028656
4237.642039	-125.949738	-390.531860	-352.776154
4237.645371	-128.170654	-393.220337	-364.874329
4237.648706	-129.281128	-395.382812	-378.433655
4237.652034	-130.566925	-396.960815	-390.882507
4237.655368	-132.320282	-399.298645	-403.857361
4237.658739	-133.956757	-401.519592	-417.358246
4237.662041	-134.658096	-402.630035	-431.092926
4237.665368	-136.645233	-403.974304	-444.418488
4237.670072	-139.450607	-405.902954	-472.121582
4237.673067	-141.028641	-406.604340	-488.194031
4237.676296	-143.074219	-406.487427	-502.922241
4237.679643	-144.184692	-406.312073	-518.410278
4237.682886	-145.119812	-406.838074	-534.248962
4237.685787	-146.171829	-405.435425	-549.561646
4237.689123	-148.451202	-405.201630	-565.517212
4237.692464	-149.094086	-403.798950	-582.524841
4237.695799	-150.263000	-401.694916	-598.772644
4237.698697	-151.256577	-399.006439	-614.494446
4237.702049	-152.600815	-397.136200	-630.800720
4237.705361	-153.419052	-393.161896	-648.509644
4237.708705	-154.412628	-389.655151	-663.763916
4237.712028	-155.523087	-385.388672	-679.427246
4237.715365	-156.458206	-379.894806	-695.616577
4237.718698	-156.984222	-375.394501	-711.455322
4237.722030	-156.750443	-369.608429	-726.241943
4237.725367	-157.042664	-363.646973	-741.613098
4237.728706	-157.451782	-355.815308	-757.451782
4237.732064	-157.977798	-348.626556	-770.894165
4237.735365	-157.627121	-341.028656	-786.031555
4237.738700	-158.562241	-332.495605	-800.584412
4237.742028	-157.627121	-323.495026	-813.442444
4237.745391	-158.503799	-314.143768	-827.118652
4237.748694	-158.386917	-304.792511	-838.515503
4237.752028	-158.503799	-293.687897	-850.847412
4237.755365	-158.971359	-282.641724	-862.711914
4237.758707	-158.971359	-271.595551	-873.056702
4237.762024	-158.386917	-259.380493	-882.875549
4237.765356	-158.562241	-247.516083	-892.869690
4237.768698	-158.211578	-234.482758	-901.168945
4237.772030	-158.270020	-220.514328	-909.994141
4237.775356	-158.270020	-206.779663	-917.182922
4237.779569	-158.094681	-176.855637	-927.936829
4237.782958	-157.627121	-161.776733	-931.268311
4237.786299	-157.276459	-145.470490	-936.937439
4237.789565	-156.575104	-129.924026	-939.333740
4237.792868	-156.925781	-113.033318	-941.554626
4237.795782	-155.815308	-96.376389	-943.366455
4237.799120	-155.756866	-79.485680	-943.600281
4237.802453	-154.529510	-62.361191	-943.366455
4237.805783	-154.529510	-45.119812	-942.255981
4237.808694	-153.360611	-27.352425	-941.087036
4237.812025	-152.308594	-9.409702	-936.820618
4237.815358	-151.373474	8.533022	-934.190552
4237.818712	-149.970779	26.475746	-929.865540
4237.822021	-148.568100	44.009354	-923.904114
4237.825354	-146.873169	61.484509	-917.708984
4237.828687	-145.412033	79.310349	-911.396912
4237.832041	-143.600235	97.136177	-903.156067
4237.835358	-142.431335	114.085327	-896.960815
4237.838690	-139.684387	131.326706	-887.141968
4237.842016	-137.989487	147.632965	-878.492065
4237.845359	-135.593231	163.471649	-868.439453
4237.848685	-133.489197	179.602570	-858.094666
4237.852022	-131.092926	194.856812	-847.691467
4237.855356	-128.462891	210.286377	-835.359497
4237.858681	-126.358856	224.254822	-824.897766
4237.862016	-124.021042	237.931030	-812.039734
4237.865352	-121.741676	250.847458	-798.947998
4237.868688	-119.053185	263.939209	-786.849792
4237.872014	-116.656921	276.212738	-774.576294
4237.875361	-115.312683	288.427826	-760.549377
4237.878685	-113.208649	299.415527	-747.749878
4237.882017	-110.870834	310.520172	-733.021667
4237.885349	-108.708359	320.572754	-720.163635
4237.889614	-105.493866	338.983063	-693.337280
4237.892955	-103.682053	347.457611	-679.485718
4237.896190	-101.987144	355.113953	-664.523621
4237.899530	-100.409111	363.004089	-649.795410
4237.902861	-98.831093	369.666870	-635.710083
4237.905796	-97.311516	375.803619	-622.384521
4237.909114	-96.259499	382.057281	-608.007019
4237.912437	-94.681473	387.142029	-593.103455
4237.915786	-93.512566	392.285217	-579.485718
4237.918679	-92.811218	396.610168	-566.160156
4237.922015	-91.408531	400.584473	-553.068420
4237.925337	-90.239624	403.740509	-537.463501
4237.928748	-89.246056	407.188782	-524.254822
4237.932018	-87.901810	409.818848	-511.046173
4237.935340	-87.083580	412.156616	-497.369965
4237.938679	-85.505554	414.260681	-484.687317
4237.942010	-85.037987	415.371124	-469.608398
4237.945344	-84.102859	416.364716	-457.510223
4237.948692	-82.933960	417.241394	-443.950897
4237.952010	-81.589714	418.059631	-431.268250
4237.955341	-81.122147	417.825836	-419.637634
4237.958674	-79.427238	418.351837	-407.773193
4237.962006	-78.609001	417.475189	-395.733490
4237.965341	-77.381645	417.358246	-383.401520
4237.968668	-76.271187	415.488007	-372.530670
4237.972010	-75.336060	414.494476	-361.367645
4237.975339	-74.459381	413.442413	-350.087677
4237.978669	-73.056694	411.513763	-339.509064
4237.982007	-72.004677	409.994171	-330.040894
4237.985366	-70.660431	408.708344	-318.760956
4237.988673	-69.900642	404.850952	-309.468140
4237.992005	-68.673286	403.331360	-299.883118
4237.996294	-66.919930	398.363525	-281.881958
4237.999526	-65.400352	395.616608	-272.355347
4238.002865	-64.406784	393.278778	-263.530090
4238.006190	-64.289894	390.181183	-255.756882
4238.009558	-63.120979	387.375793	-248.158981
4238.012421	-62.244301	385.271759	-239.976624
4238.015786	-60.841614	382.115723	-233.313843
4238.019111	-60.607834	377.673859	-225.131516
4238.022446	-60.023380	375.219177	-217.825836
4238.025332	-59.848042	372.180023	-211.104614
4238.028710	-59.263588	368.205750	-205.376984
4238.031998	-58.562244	364.991241	-197.954422
4238.035335	-58.386909	361.952057	-192.460556
4238.038665	-57.802456	358.094696	-186.440689
4238.041999	-57.218002	354.412628	-179.894791
4238.045335	-57.451786	351.256592	-173.115128
4238.048668	-57.334892	348.451202	-167.855057
4238.052001	-57.218002	345.236694	-162.361191
4238.055336	-56.575100	342.139099	-156.691986
4238.058669	-56.867332	339.392151	-152.133255
4238.061997	-56.399769	335.125671	-146.756287
4238.065333	-56.049095	332.086487	-141.905319
4238.068669	-56.224430	328.229126	-137.580353
4238.072020	-55.464642	324.488586	-132.320282
4238.075328	-55.873756	321.800110	-128.287552
4238.078664	-55.932205	318.585632	-123.670364
4238.081998	-55.464642	315.137329	-119.462296
4238.085334	-55.464642	311.572174	-115.078903
4238.088661	-54.704849	308.649933	-110.520157
4238.091992	-54.354179	305.552307	-107.422554
4238.095329	-54.471069	303.623596	-103.740501
4238.098695	-54.120399	300.233795	-99.123314
4238.103285	-53.302162	293.863251	-93.337234
4238.106211	-53.360603	291.291656	-90.122734
4238.109508	-53.009933	288.661591	-85.856224
4238.112867	-52.308590	285.914673	-82.524841
4238.116232	-52.542370	282.817078	-80.245468
4238.119103	-52.074806	280.128571	-77.089424
4238.122443	-51.548801	277.615417	-73.465813
4238.125775	-51.373463	275.628296	-71.770897
4238.129082	-51.081242	272.530670	-68.556396
4238.132411	-50.789009	270.426666	-66.218582
4238.135324	-50.438339	268.322601	-63.588543
4238.138658	-50.263004	264.815918	-62.068962
4238.141994	-50.204556	263.413208	-59.029804
4238.145324	-49.620102	261.016937	-57.218002
4238.148655	-49.503212	259.029816	-55.347752
4238.151985	-49.444767	257.042664	-53.243713
4238.155325	-49.269432	254.938629	-51.198132
4238.158666	-48.626534	252.951477	-49.795441
4238.161988	-48.977203	251.373459	-47.808300
