time (s)	magX	magY	magZ
6243.644753	-115.312683	-333.547638	-289.596710
6243.648084	-117.066040	-335.300995	-300.467560
6243.651419	-118.059608	-337.521912	-308.825256
6243.654754	-119.579193	-339.041504	-319.812958
6243.658084	-121.040329	-341.554626	-330.917603
6243.661422	-122.326126	-342.431335	-341.262421
6243.664746	-124.079491	-343.892456	-351.957916
6243.668076	-125.365280	-345.119812	-363.822327
6243.671413	-126.592636	-346.873169	-375.511414
6243.674767	-127.819992	-347.106964	-387.843384
6243.678081	-129.105789	-348.042084	-400.058472
6243.681417	-130.976028	-348.568085	-413.851562
6243.684747	-132.378723	-348.451202	-426.884827
6243.688079	-133.080063	-347.925171	-440.385712
6243.691415	-135.242538	-348.042084	-468.731750
6243.695601	-137.112793	-345.412048	-482.291077
6243.698933	-138.223267	-343.950928	-496.142639
6243.702262	-138.924606	-341.087067	-509.877258
6243.705655	-140.385742	-339.509064	-523.378113
6243.708943	-140.970200	-337.346588	-537.697266
6243.711856	-141.613083	-334.132080	-552.074829
6243.715196	-142.139099	-331.034485	-565.225037
6243.718569	-143.074219	-327.294006	-578.901245
6243.721828	-143.541794	-323.085907	-592.635864
6243.724741	-144.476913	-318.702515	-606.136780
6243.728081	-144.769150	-313.267090	-617.182922
6243.731414	-144.301575	-308.416138	-629.807129
6243.734739	-144.710693	-303.214508	-642.606628
6243.738078	-145.002930	-297.369965	-653.828186
6243.741414	-144.301575	-290.531860	-664.699036
6243.744745	-144.184692	-284.687317	-676.388062
6243.748072	-144.418472	-277.381653	-685.447144
6243.751410	-144.126236	-270.368195	-695.850342
6243.754744	-144.301575	-263.004089	-707.364136
6243.758077	-143.424896	-255.172424	-715.897156
6243.761410	-143.308014	-247.282288	-725.949707
6243.764739	-142.431335	-239.041489	-734.774963
6243.768072	-142.197556	-230.450027	-742.372925
6243.771409	-141.320862	-221.449448	-750.496765
6243.774740	-140.970200	-210.929276	-758.211548
6243.778118	-140.210403	-201.461121	-765.809509
6243.781405	-139.392166	-190.824081	-772.355347
6243.784739	-138.866165	-179.953247	-778.842773
6243.788073	-137.288147	-168.264175	-784.395081
6243.791421	-136.294571	-156.399765	-790.122742
6243.794737	-135.417877	-144.360016	-794.856812
6243.798072	-134.599655	-131.326706	-798.363525
6243.802273	-131.852722	-103.974281	-805.143188
6243.805601	-130.917603	-90.414963	-807.831665
6243.808944	-128.755112	-76.212738	-809.117493
6243.812362	-127.644661	-61.893631	-810.169495
6243.815189	-125.949738	-46.814728	-809.468201
6243.818539	-123.962593	-31.677380	-809.526611
6243.821845	-122.735237	-16.423145	-808.416199
6243.825164	-120.572769	-1.052016	-806.838135
6243.828493	-118.118057	14.669784	-803.740479
6243.831399	-116.247810	29.631794	-799.415527
6243.834747	-113.734665	45.295151	-795.791931
6243.838061	-111.046173	60.958504	-790.239624
6243.841393	-109.059021	76.037407	-786.089966
6243.844728	-106.136765	90.473404	-779.018127
6243.848071	-104.208061	104.266510	-772.881348
6243.851396	-101.168907	118.702522	-765.049683
6243.854735	-98.655754	132.378723	-757.334900
6243.858060	-95.967270	145.002930	-749.853882
6243.861398	-93.921684	157.919342	-740.619507
6243.864747	-91.817650	170.309753	-733.898315
6243.868067	-88.603157	181.881943	-723.319702
6243.871392	-86.148453	192.986557	-715.371155
6243.874736	-83.518410	203.623611	-706.429016
6243.878069	-81.355927	214.494446	-697.662170
6243.881391	-78.375221	224.079483	-688.486267
6243.884719	-75.978958	233.781403	-678.433655
6243.888061	-74.050262	242.139099	-668.673279
6243.891393	-71.595558	250.555237	-659.322021
6243.894727	-69.842194	259.088257	-647.691406
6243.898059	-67.387489	266.452362	-638.924622
6243.901391	-65.458801	274.225586	-628.112244
6243.904721	-63.588543	280.303894	-617.241394
6243.908949	-59.146698	293.687897	-596.084167
6243.912268	-57.510227	300.350677	-585.388672
6243.915648	-55.639977	305.552307	-574.985413
6243.918983	-53.769726	310.637054	-564.114563
6243.921857	-52.483929	315.897125	-553.243713
6243.925153	-51.315022	319.929871	-542.255981
6243.928485	-48.684978	325.540619	-530.216248
6243.931825	-47.457626	328.872009	-518.351868
6243.935154	-45.879601	333.547638	-507.481018
6243.938051	-44.243134	337.580383	-495.499695
6243.941384	-42.840446	341.496216	-484.979523
6243.944725	-41.729984	344.886047	-472.121582
6243.948054	-40.035065	346.288727	-461.075409
6243.951411	-38.749268	348.568085	-449.503235
6243.954718	-37.580360	352.191711	-437.521942
6243.958057	-35.827003	353.068390	-426.183502
6243.961389	-34.833431	354.529510	-414.377533
6243.964722	-33.956753	355.815308	-403.682037
6243.968055	-32.787846	356.867340	-393.103455
6243.971387	-31.677380	357.042664	-381.005249
6243.974729	-30.508474	358.036224	-371.303314
6243.978049	-29.456457	357.159576	-360.900055
6243.981383	-28.345997	357.627136	-350.496796
6243.984720	-27.819988	356.925781	-339.567505
6243.988087	-26.300409	356.282867	-330.157806
6243.991387	-25.832848	355.113953	-320.864990
6243.994726	-24.780828	354.821747	-312.799530
6243.998047	-24.021040	352.191711	-303.857391
6244.001380	-23.027470	350.905884	-294.681488
6244.004715	-22.559906	350.672119	-286.031555
6244.008049	-21.391001	348.684967	-279.368774
6244.011381	-21.157219	347.516083	-271.712433
6244.015582	-20.748100	343.483337	-257.743988
6244.018981	-19.111629	341.671539	-251.139694
6244.022358	-18.702513	339.918182	-244.652252
6244.025646	-18.702513	337.814148	-238.632370
6244.028901	-17.884277	335.826996	-233.138519
6244.031848	-18.176504	333.430756	-227.527756
6244.035138	-17.358271	332.203400	-222.267670
6244.038468	-17.416716	329.222687	-215.429565
6244.041809	-16.540035	326.592651	-210.695511
6244.044709	-16.364700	324.196381	-205.727646
6244.048043	-16.306253	321.624786	-200.058441
6244.051374	-16.306253	320.105194	-194.915253
6244.054716	-15.838690	317.475159	-189.479843
6244.058041	-15.546463	315.312683	-185.330215
6244.061377	-15.078900	313.442413	-180.596130
6244.064705	-15.546463	309.877289	-175.277618
6244.068078	-15.663354	307.831665	-170.718872
6244.071374	-15.371127	305.786072	-165.984802
6244.074713	-15.312682	303.565155	-161.776733
6244.078038	-15.371127	300.818237	-156.282883
6244.081378	-15.254237	297.779083	-151.490356
6244.084707	-15.254237	294.856812	-146.522491
6244.088043	-14.552893	293.220337	-142.489761
6244.091375	-14.260666	290.531860	-138.106369
6244.094706	-14.845119	287.726471	-132.729401
6244.098043	-14.552893	285.096436	-129.281128
6244.101372	-14.669784	282.407959	-124.897720
6244.104720	-14.669784	280.245483	-120.923439
6244.108038	-14.845119	277.907654	-116.423141
6244.111369	-14.319112	274.985382	-113.383987
6244.114707	-14.552893	272.063110	-109.292816
6244.118039	-14.319112	269.374634	-105.318520
6244.122295	-13.793103	264.991241	-98.421974
6244.125631	-14.202221	263.471649	-95.967270
6244.128900	-14.786674	260.666260	-92.986557
6244.132212	-14.494448	258.562256	-89.538284
6244.135162	-14.377557	256.049072	-86.966690
6244.138467	-13.909994	254.704865	-84.453537
6244.141792	-14.319112	252.659271	-82.817062
6244.145125	-14.494448	250.555237	-80.713036
6244.148495	-14.085330	248.275848	-77.849213
6244.151367	-13.734658	246.814728	-76.388077
6244.154698	-13.968439	245.821167	-75.043831
6244.158033	-13.734658	243.483353	-72.530678
6244.161374	-14.085330	242.139099	-71.654007
6244.164697	-13.968439	240.911743	-70.134422
6244.168038	-13.909994	239.801285	-67.913506
6244.171364	-13.676212	238.866165	-67.329048
6244.174691	-14.085330	237.814148	-65.049675
6244.178070	-13.676212	236.469910	-64.173004
6244.181367	-14.026885	235.534760	-62.711864
6244.184702	-13.734658	233.898300	-62.478085
6244.188030	-13.676212	233.080078	-60.257160
6244.191379	-13.617767	231.969620	-59.614258
6244.194695	-13.793103	230.274704	-58.503799
6244.198032	-13.617767	229.865570	-56.867332
6244.201363	-13.909994	228.462891	-55.289303
6244.204697	-13.909994	226.826401	-55.289303
6244.208028	-13.267096	225.482178	-53.419052
6244.211365	-13.559322	224.722382	-52.191700
6244.214693	-14.260666	223.261261	-51.841026
6244.218023	-13.500876	221.683212	-49.970776
6244.221381	-13.793103	221.157211	-49.035652
6244.224689	-13.793103	219.929855	-47.691406
6244.229305	-13.500876	217.708939	-45.587376
6244.232209	-13.559322	216.072464	-44.243134
6244.235549	-13.676212	214.903564	-42.665108
6244.238921	-13.851549	214.319107	-41.437756
6244.242227	-13.617767	214.377548	-40.853302
6244.245140	-13.325541	212.156631	-39.333721
6244.248468	-13.676212	211.104614	-38.164814
6244.251886	-13.968439	210.578613	-38.047924
6244.255118	-13.617767	209.526581	-36.645237
6244.258058	-13.793103	208.708359	-36.002338
6244.261358	-13.325541	207.597900	-34.950321
6244.264707	-13.267096	207.305664	-34.248978
6244.268024	-12.624197	206.779663	-33.839859
6244.271352	-13.033314	206.312103	-32.670956
6244.274686	-12.273524	206.312103	-32.437172
6244.278024	-11.922852	205.435425	-32.904736
6244.281357	-12.448860	205.260086	-31.969610
6244.284687	-11.981297	204.675629	-31.911165
6244.288021	-11.981297	204.850952	-32.612507
6244.291349	-11.572180	205.318527	-32.437172
6244.294685	-11.396844	204.967850	-31.852718
6244.298022	-10.929281	204.850952	-32.437172
6244.301372	-11.104617	205.201630	-31.969610
6244.304679	-11.221508	205.143188	-33.138515
6244.308013	-10.578609	205.318527	-33.372299
6244.311353	-9.994155	205.143188	-33.606079
6244.314741	-10.461719	205.318527	-33.956753
6244.318027	-10.344828	205.318527	-34.248978
6244.321349	-9.643483	206.370544	-35.768555
6244.324681	-9.643483	206.370544	-35.943893
6244.328014	-9.351256	206.779663	-36.469902
6244.331346	-9.526592	206.721207	-36.995907
6244.334679	-9.175920	206.896545	-37.521915
6244.338868	-8.825249	208.065460	-37.405025
6244.342225	-8.240795	208.065460	-37.814144
6244.345586	-8.007013	208.416122	-38.983051
6244.348964	-7.481005	208.416122	-38.047924
6244.351799	-7.656341	208.766800	-39.158386
6244.355153	-7.247224	209.585052	-39.216831
6244.358441	-6.721216	210.344833	-39.333721
6244.361770	-7.071887	209.877274	-39.801285
6244.365107	-6.896552	210.169479	-39.859730
6244.368013	-6.662770	210.812408	-39.684395
6244.371345	-6.019871	211.221497	-39.684395
6244.374683	-5.727644	212.156631	-39.567505
6244.378009	-5.376973	212.331970	-39.684395
6244.381344	-5.318527	212.799530	-39.918175
6244.384676	-4.909410	213.033325	-40.502628
6244.388018	-4.383401	213.734650	-40.970196
6244.391340	-4.675628	214.202209	-41.788429
6244.394678	-4.032730	214.669769	-42.957336
6244.398015	-3.331385	215.020462	-43.132671
6244.401341	-3.039158	216.364700	-43.541790
6244.404677	-2.279369	216.715363	-44.886032
6244.408064	-2.220923	218.468735	-45.353596
6244.411337	-1.402689	219.228531	-46.639393
6244.414672	-0.876680	220.046753	-48.217415
6244.418010	-0.526008	221.391006	-48.626534
6244.421339	0.467563	222.267670	-50.029224
6244.424674	0.642899	223.436600	-51.431911
6244.428010	1.344243	224.956161	-52.776154
6244.431362	2.162478	227.001770	-54.412621
6244.434673	2.805377	228.229111	-55.873756
6244.438004	3.214494	229.456451	-57.919346
6244.441343	3.974284	231.151367	-61.016949
6244.445548	4.675628	233.898300	-64.582115
6244.448887	6.312099	235.943893	-67.796616
6244.452272	6.545880	237.229675	-69.023964
6244.455598	7.714787	239.041489	-72.004677
6244.458863	8.240795	240.736420	-74.634720
6244.461768	8.883694	242.606659	-76.855644
6244.465092	9.526592	243.717117	-79.251900
6244.468432	10.403274	245.704269	-81.122147
6244.471762	11.396844	248.158981	-84.102859
6244.474703	12.331969	250.029236	-86.732903
6244.478006	12.682642	251.490356	-88.953827
6244.481336	14.026885	253.009933	-91.642311
6244.484667	14.143775	254.763290	-93.980125
6244.487998	14.845119	256.633545	-96.317940
6244.491335	15.838690	258.153137	-98.305084
6244.494665	17.182934	260.490936	-100.993576
6244.498021	17.650497	261.893616	-103.097603
6244.501336	18.001169	263.296326	-105.435417
6244.504666	18.644068	265.809479	-107.948563
6244.508004	20.222092	267.621277	-111.689064
6244.511332	20.689655	269.316193	-114.436005
6244.514669	21.391001	271.244873	-117.066040
6244.518024	22.910578	272.705994	-120.338989
6244.521330	23.904150	274.810059	-123.144363
6244.524667	24.605494	276.972534	-125.248398
6244.527996	25.832848	278.199890	-129.164230
6244.531324	26.592636	280.888367	-131.794281
6244.534666	27.995323	282.407959	-135.417877
6244.537996	28.988895	284.628876	-139.216827
6244.541324	30.216248	286.849792	-142.840439
6244.544661	31.677380	288.836945	-146.931625
6244.547997	32.554062	290.414948	-150.905914
6244.552279	35.359440	294.915253	-160.724716
6244.555581	36.820572	296.785492	-165.751022
6244.558860	38.515488	299.298645	-170.718872
6244.562195	40.035065	302.104034	-176.154297
6244.565502	41.496201	303.272949	-182.291061
6244.568424	43.424900	306.721222	-188.252487
6244.571749	44.710697	308.240784	-194.272354
6244.575084	46.288719	310.929260	-201.110458
6244.578460	47.516071	312.273529	-207.831665
6244.581773	48.977203	314.903564	-214.494446
6244.584657	50.496788	316.832245	-221.274109
6244.587987	52.191700	319.228516	-228.229111
6244.591358	54.003506	320.338989	-235.651657
6244.594657	55.347752	322.150787	-242.781998
6244.597993	57.101112	324.021027	-250.087662
6244.601328	58.971363	325.073059	-257.101105
6244.604656	60.490944	327.060211	-265.809479
6244.607988	62.653416	328.345978	-274.400940
6244.611323	64.114555	329.573334	-281.297485
6244.614651	65.926361	330.157806	-289.129150
6244.617983	67.562828	330.917603	-297.428406
6244.621323	68.907074	331.618927	-305.669189
6244.624652	70.718880	332.846283	-312.974854
6244.627993	72.881355	333.547638	-322.209229
6244.631319	74.926941	334.190521	-330.391571
6244.634668	76.563416	334.833435	-337.521912
6244.637988	78.375221	335.300995	-346.639404
6244.641314	80.888367	334.541199	-355.113953
6244.644652	82.466393	334.365875	-364.056122
6244.647987	84.278198	334.307434	-373.115143
6244.651337	85.564003	333.489166	-381.063690
6244.654649	87.901810	333.430756	-390.064301
6244.657984	89.538284	332.963196	-399.532440
6244.662165	93.220345	328.988892	-417.358246
6244.665535	95.090591	327.819977	-427.586212
6244.668853	97.136177	325.949738	-436.879028
6244.672190	98.947983	324.021027	-448.042053
6244.675101	100.526009	321.098785	-457.042633
6244.678463	102.162483	318.293396	-468.030396
6244.681769	104.441849	314.903564	-478.725922
6244.685134	106.136765	310.695496	-490.239624
6244.688412	108.065460	306.195221	-500.876678
6244.691320	110.052597	302.104034	-512.682617
6244.694647	111.513733	297.194611	-525.014587
6244.697980	113.091751	291.934540	-535.359436
6244.701313	114.786674	286.265350	-547.808289
6244.704644	116.072479	280.771484	-559.322021
6244.707971	117.650497	273.582703	-572.063110
6244.711309	118.585625	266.160126	-584.161316
6244.714641	120.338989	258.328461	-596.025696
6244.717978	121.098770	250.379898	-607.305664
6244.721324	122.501457	241.437744	-619.403809
6244.724645	123.144363	232.904739	-630.566956
6244.727971	123.962593	223.728821	-641.788452
6244.731311	124.663940	214.319107	-653.068420
6244.734644	125.423729	203.974289	-663.705444
6244.737980	125.306831	193.220337	-673.758057
6244.741308	125.715958	181.589706	-683.986023
6244.744644	125.715958	170.660431	-692.928101
6244.748009	125.715958	159.497375	-701.636475
6244.751343	125.423729	148.100525	-711.630615
6244.754642	125.248398	136.294571	-719.345398
6244.757975	124.956169	124.663940	-726.709534
6244.761305	124.663940	113.091751	-734.658081
6244.764669	124.722382	101.052025	-740.327332
6244.769267	123.144363	76.914085	-754.588013
6244.772174	122.150787	64.348335	-758.854492
6244.775523	121.332550	52.191700	-764.465210
6244.778910	120.631203	39.742840	-767.562805
6244.782236	119.696083	27.293980	-772.121582
6244.785067	117.767380	15.020455	-774.810059
6244.788404	116.656921	2.571596	-777.615479
6244.791731	115.137352	-10.520164	-780.713013
6244.795089	113.617767	-22.969025	-782.875488
6244.797969	112.156631	-35.476330	-783.050842
6244.801301	110.344826	-48.801868	-785.037964
6244.804635	108.942139	-61.426067	-784.336670
6244.807987	107.656334	-73.874924	-782.700134
6244.811299	105.435417	-86.966690	-782.875488
6244.814631	102.746925	-99.123314	-781.472839
6244.817969	100.526009	-112.273529	-779.251892
6244.821307	98.363533	-124.897720	-775.043823
6244.824628	95.265923	-137.463470	-771.478638
6244.827966	92.694328	-149.912338	-767.212158
6244.831298	89.070717	-163.237869	-762.711853
6244.834634	86.557564	-174.576263	-756.984253
6244.837999	83.810638	-187.200470	-750.029236
6244.841297	80.362358	-198.714203	-743.074219
6244.844633	77.089424	-210.812408	-735.885437
6244.847967	74.167160	-221.274109	-727.586243
6244.851316	70.835770	-232.846283	-719.053162
6244.854634	66.978378	-242.197540	-709.877258
6244.857963	63.588543	-252.367050	-700.000000
6244.861301	59.672707	-261.016937	-689.421387
6244.864636	56.282879	-270.543549	-679.719421
6244.867965	52.542370	-278.550568	-666.452332
6244.871295	48.626534	-286.849792	-655.639954
6244.875976	41.846874	-300.935120	-630.800720
6244.878903	38.281708	-306.721222	-619.520752
6244.882254	34.774986	-312.741089	-606.721191
6244.885572	31.502045	-318.527161	-594.973694
6244.888811	28.521332	-323.202789	-581.998840
6244.891721	26.066628	-327.469330	-568.731750
6244.895078	22.735243	-331.326691	-557.451782
6244.898378	20.222092	-334.774994	-545.704285
6244.901715	17.066044	-337.872589	-531.911194
6244.904631	13.909994	-340.502625	-520.689697
6244.907953	11.630626	-342.489777	-509.234375
6244.911292	8.825249	-345.002899	-496.785492
6244.914623	6.195207	-346.990051	-484.979523
6244.917957	3.915838	-347.691406	-473.173584
6244.921290	2.162478	-349.210968	-461.192261
6244.924632	0.292227	-350.379883	-450.204559
6244.927955	-2.630041	-351.256592	-438.106384
6244.931295	-4.500292	-351.957916	-427.586212
6244.934623	-6.487434	-351.548798	-415.020477
6244.937963	-8.474577	-351.198120	-405.026306
6244.941290	-10.052601	-350.613678	-393.395691
6244.944622	-12.331969	-350.029236	-382.758606
6244.947951	-14.085330	-350.029236	-371.420227
6244.951287	-16.306253	-349.152527	-361.659851
6244.954623	-17.767387	-347.632965	-349.795441
6244.957956	-19.286966	-346.347168	-338.457031
6244.961287	-21.800117	-344.886047	-328.053772
6244.964618	-23.202805	-343.658691	-316.306244
6244.967965	-24.839275	-342.314423	-306.370544
6244.971287	-26.651081	-339.684387	-295.675049
6244.974621	-28.404442	-337.171234	-284.921112
6244.977949	-29.514902	-335.476318	-274.517822
6244.982236	-32.554062	-330.800690	-254.295731
6244.985555	-34.248978	-327.644653	-245.002914
6244.988863	-35.476330	-324.488586	-235.768555
6244.992145	-37.054356	-322.384583	-227.118637
6244.995461	-38.690823	-318.877838	-218.234940
6244.998391	-39.509056	-315.488037	-209.117477
6245.001705	-40.794857	-312.974854	-200.584457
6245.005077	-42.080654	-309.351257	-192.694336
6245.008374	-43.424900	-306.078308	-185.096436
6245.011736	-44.535358	-303.331360	-177.264755
6245.014613	-45.002922	-300.759796	-170.309753
6245.017947	-46.171829	-297.136200	-163.530106
6245.021274	-47.223846	-294.038574	-157.510239
6245.024647	-47.399181	-290.414948	-151.724136
6245.027954	-48.451199	-287.317352	-145.236710
6245.031275	-49.327877	-284.628876	-139.099945
6245.034615	-49.970776	-281.472839	-134.015198
6245.037947	-50.555229	-278.141418	-128.053772
6245.041277	-51.315022	-275.686737	-123.319695
6245.044611	-51.022793	-272.296906	-118.760956
6245.047944	-51.490356	-269.374634	-115.429565
6245.051282	-52.425480	-266.569244	-110.637054
6245.054628	-53.009933	-263.705444	-106.721207
6245.057943	-53.068382	-261.367645	-102.980713
6245.061277	-53.126823	-258.737579	-99.240204
6245.064609	-52.951492	-255.932205	-95.382812
