time (s)	magX	magY	magZ
2840.865499	-53.302162	-187.258911	-1243.483398
2840.868848	-54.646408	-165.517242	-1245.645752
2840.872157	-54.646408	-144.535370	-1246.171875
2840.875490	-55.990646	-122.910583	-1246.054932
2840.878397	-57.393337	-100.467560	-1245.937988
2840.881731	-58.854473	-77.556984	-1244.301636
2840.885054	-59.906490	-55.873756	-1239.801270
2840.888391	-60.724724	-33.372299	-1235.943848
2840.891729	-62.302746	-12.098188	-1229.807129
2840.895061	-63.646992	11.221508	-1222.676758
2840.898411	-64.582115	32.670956	-1217.942749
2840.901730	-65.692581	54.412621	-1207.422485
2840.905127	-66.335472	76.037407	-1198.831055
2840.908398	-67.095268	97.662186	-1189.713623
2840.911745	-68.264175	119.228516	-1178.433716
2840.915059	-68.965515	139.158386	-1165.692627
2840.918398	-69.549973	160.081833	-1154.704834
2840.921727	-70.251312	180.362350	-1141.028564
2840.925058	-70.894211	199.006424	-1128.053711
2840.928394	-71.537109	218.410278	-1114.085327
2840.931726	-72.238457	236.177689	-1099.298706
2840.935056	-72.472237	254.178833	-1084.804199
2840.938390	-72.413788	271.069550	-1070.952759
2840.941746	-73.173584	288.194031	-1054.003540
2840.945058	-73.641144	304.500305	-1037.288086
2840.948387	-73.699593	320.981873	-1020.806519
2840.951724	-74.167160	335.593231	-1005.084717
2840.955990	-74.693161	365.341888	-970.192932
2840.959313	-74.517830	378.492126	-953.711304
2840.962688	-74.810051	391.233215	-935.534790
2840.965910	-75.511398	403.857361	-917.241394
2840.969236	-75.336060	415.312683	-899.357117
2840.972178	-76.095848	426.651093	-882.232544
2840.975480	-76.388077	437.580353	-863.997681
2840.978806	-76.680305	446.814728	-845.295166
2840.982137	-77.323204	456.458221	-826.884827
2840.985059	-77.323204	464.172974	-808.240784
2840.988389	-77.498535	471.946228	-790.414978
2840.991715	-77.907654	480.420837	-772.998230
2840.995057	-78.199883	487.083588	-754.821716
2840.998381	-78.959671	492.694336	-737.872620
2841.001720	-78.550552	498.246613	-721.157227
2841.005092	-78.725891	504.149628	-703.682068
2841.008384	-78.901222	507.948578	-685.914673
2841.011718	-79.135010	511.455292	-669.959045
2841.015078	-79.368790	514.260681	-652.074829
2841.018384	-80.070129	516.773804	-636.995911
2841.021713	-79.719460	518.877869	-621.040344
2841.025052	-79.953239	520.572754	-605.610779
2841.028385	-79.953239	521.741699	-589.713623
2841.031711	-80.771477	522.442993	-575.043823
2841.035049	-80.537697	523.962585	-560.666260
2841.038378	-80.245468	523.553467	-546.347168
2841.041708	-80.654587	524.137939	-533.196960
2841.045052	-80.771477	523.085937	-518.527161
2841.048379	-80.829926	523.144348	-505.669220
2841.051738	-80.420807	521.390991	-493.395660
2841.055049	-80.537697	520.280579	-480.420837
2841.058381	-80.245468	518.819458	-467.738159
2841.061715	-79.661018	516.773804	-456.049103
2841.065965	-79.427238	512.682617	-432.787842
2841.069294	-79.368790	511.279968	-421.507874
2841.072558	-78.784332	508.649933	-409.468140
2841.075920	-78.492111	505.610748	-399.064880
2841.079226	-78.082993	503.214508	-389.129150
2841.082135	-78.316772	499.649323	-379.018127
2841.085465	-77.381645	496.201050	-368.439514
2841.088822	-77.206314	493.220337	-358.854462
2841.092152	-77.030975	490.531860	-348.334320
2841.095078	-76.446518	487.200439	-339.333740
2841.098373	-76.154297	484.278198	-329.982483
2841.101730	-76.271187	480.070129	-320.455872
2841.105044	-75.569847	475.803619	-312.331970
2841.108374	-75.628288	472.764435	-302.922272
2841.111703	-75.452957	468.848602	-293.863251
2841.115043	-75.102280	464.523651	-286.323792
2841.118375	-74.926941	460.841614	-279.251923
2841.121702	-74.926941	458.036224	-270.660431
2841.125043	-74.634720	453.126801	-262.361206
2841.128377	-74.517830	449.094116	-254.938629
2841.131699	-74.400940	446.113403	-247.808289
2841.135040	-73.874924	442.080627	-241.262405
2841.138410	-73.641144	438.223267	-235.242554
2841.141703	-74.050262	434.073639	-228.287552
2841.145035	-73.641144	431.151398	-221.566345
2841.148370	-73.407364	427.235565	-215.721802
2841.151703	-73.699593	423.670380	-209.409714
2841.155031	-73.115143	419.988312	-204.208069
2841.158374	-73.524254	415.137329	-198.597305
2841.161705	-73.115143	411.747498	-193.571014
2841.165034	-73.115143	407.364136	-188.135590
2841.168367	-73.524254	404.091156	-182.992401
2841.171697	-72.706017	401.052002	-177.615433
2841.175906	-73.232033	394.681488	-169.725311
2841.179212	-72.296898	391.057861	-164.523666
2841.182581	-72.355347	387.784912	-160.958511
2841.185902	-72.472237	384.219757	-157.042664
2841.189237	-72.238457	381.531250	-153.243713
2841.192157	-71.478668	378.842773	-149.561661
2841.195477	-71.946228	375.862061	-145.353592
2841.198828	-71.829338	373.290466	-141.905319
2841.202150	-70.835770	369.549957	-138.983047
2841.205031	-71.303329	366.744598	-135.827011
2841.208368	-70.835770	364.406769	-132.261841
2841.211699	-70.543541	361.659851	-129.865570
2841.215030	-70.601990	357.919342	-126.066628
2841.218363	-70.485100	355.639984	-122.969017
2841.221700	-70.075974	353.711273	-120.923439
2841.225056	-70.368210	350.964355	-117.416718
2841.228366	-69.959084	347.925171	-114.026878
2841.231691	-69.549973	345.587372	-112.039742
2841.235029	-69.491524	343.132660	-109.701935
2841.238363	-68.497955	340.619507	-106.604324
2841.241692	-68.439507	337.872589	-104.032730
2841.245024	-68.848625	335.768555	-101.694916
2841.248356	-68.497955	333.430756	-99.357101
2841.251694	-67.796616	331.560486	-97.486847
2841.255024	-68.381065	329.105774	-95.324371
2841.258356	-67.679718	326.943298	-93.454124
2841.261687	-68.205727	325.073059	-91.525421
2841.265024	-67.855057	323.319702	-89.888954
2841.268369	-68.147285	321.332550	-87.200470
2841.271737	-67.855057	318.527161	-85.680893
2841.275041	-68.264175	316.832245	-83.343079
2841.278352	-68.088837	316.189362	-81.589714
2841.282949	-68.497955	312.039734	-78.082993
2841.285874	-68.264175	311.221497	-77.615425
2841.289232	-68.381065	309.643494	-75.803627
2841.292576	-67.504379	308.240784	-74.517830
2841.295967	-68.439507	306.838104	-73.173584
2841.298846	-68.322617	305.318512	-71.770897
2841.302132	-67.855057	304.208069	-71.478668
2841.305459	-67.679718	303.682068	-71.712448
2841.308780	-68.205727	302.162476	-69.374634
2841.312139	-67.738167	301.578033	-68.088837
2841.315020	-67.738167	300.000000	-67.212158
2841.318353	-68.497955	299.532440	-67.153709
2841.321690	-67.796616	298.714203	-65.984802
2841.325012	-67.738167	297.662201	-65.517242
2841.328350	-67.387489	297.136200	-65.225014
2841.331687	-67.913506	297.136200	-63.413208
2841.335016	-68.030396	296.025696	-63.471649
2841.338348	-67.445938	295.324371	-63.763882
2841.341679	-68.147285	294.915253	-63.237869
2841.345015	-67.504379	294.155457	-62.711864
2841.348350	-67.913506	293.454132	-62.302746
2841.351683	-67.036819	293.103455	-62.302746
2841.355019	-67.562828	293.278778	-62.478085
2841.358344	-67.212158	292.518982	-62.127411
2841.361683	-67.445938	292.811218	-61.835182
2841.365095	-67.095268	292.811218	-60.841614
2841.368353	-67.621269	292.518982	-60.783165
2841.371676	-66.861488	291.233215	-61.192287
2841.375019	-67.095268	291.525421	-61.426067
2841.378347	-67.270599	291.291656	-61.133839
2841.381676	-67.153709	290.882507	-60.549385
2841.385045	-67.504379	290.824066	-60.432495
2841.388341	-67.679718	291.583862	-60.432495
2841.392960	-67.796616	292.168335	-61.309177
2841.395903	-67.738167	292.518982	-59.438927
2841.399283	-67.855057	292.226776	-59.555817
2841.402596	-68.205727	292.402100	-60.198711
2841.405935	-67.621269	292.694336	-60.315601
2841.408775	-67.971947	293.454132	-61.426067
2841.412100	-67.971947	293.629456	-61.250729
2841.415465	-68.731735	294.038574	-61.718292
2841.418772	-68.205727	294.097015	-62.127411
2841.421677	-69.316193	294.856812	-63.237869
2841.425001	-68.264175	295.324371	-63.880772
2841.428339	-68.907074	296.142609	-64.640564
2841.431669	-68.965515	297.253052	-64.815895
2841.435013	-68.673286	297.895966	-65.400352
2841.438344	-69.023964	299.415527	-66.101692
2841.441677	-69.316193	300.350677	-66.978378
2841.445006	-69.491524	300.935120	-68.264175
2841.448342	-70.075974	302.922272	-68.965515
2841.451673	-70.017532	303.798950	-70.426651
2841.455003	-70.368210	304.324951	-71.127991
2841.458339	-70.075974	305.844543	-72.296898
2841.461675	-70.777321	307.247223	-73.582703
2841.465010	-70.835770	308.299225	-74.459381
2841.468336	-70.017532	310.461700	-76.271187
2841.471672	-70.660431	311.922852	-77.030975
2841.475003	-71.127991	313.208649	-78.316772
2841.478332	-71.011101	314.728241	-80.011688
2841.481672	-70.894211	316.364685	-82.875511
2841.485010	-70.777321	317.708954	-84.219757
2841.488332	-71.011101	319.988312	-85.914673
2841.491665	-71.420219	321.741669	-87.960258
2841.495000	-71.244881	323.845703	-89.304504
2841.498333	-71.244881	325.423706	-91.116310
2841.502564	-72.004677	329.222687	-95.032143
2841.505954	-72.063118	331.151367	-96.843948
2841.509261	-72.296898	333.313843	-98.188194
2841.512557	-71.946228	335.359436	-101.110458
2841.515889	-72.355347	337.229675	-102.454712
2841.518753	-72.355347	339.742859	-104.909409
2841.522087	-73.173584	341.379303	-107.597900
2841.525429	-72.822914	344.360016	-110.520157
2841.528752	-73.524254	346.405609	-111.689064
2841.531666	-73.465813	348.684967	-114.494446
2841.534999	-73.816483	351.081238	-117.182938
2841.538327	-74.400940	353.360596	-119.871429
2841.541664	-75.160721	355.347748	-123.378143
2841.545020	-75.219170	357.860901	-125.482178
2841.548328	-75.043831	360.958496	-129.222687
2841.551659	-74.868500	363.471649	-132.086502
2841.555036	-75.862068	366.335480	-135.534775
2841.558334	-76.329628	369.433075	-138.457047
2841.561658	-77.323204	372.180023	-142.080658
2841.564993	-77.556984	374.342499	-145.236710
2841.568325	-77.440094	377.732330	-149.386322
2841.571661	-77.849213	382.057281	-153.652832
2841.574994	-78.492111	384.102875	-157.276459
2841.578325	-78.550552	387.668030	-162.010513
2841.581659	-78.842781	391.350067	-166.452377
2841.584986	-79.894798	393.804779	-171.011108
2841.588342	-80.128578	397.545288	-175.978958
2841.591657	-80.537697	400.409119	-180.245468
2841.594991	-80.829926	403.798950	-185.388657
2841.598326	-81.063705	407.481018	-189.772064
2841.601657	-81.765053	411.279968	-196.084167
2841.604987	-81.706604	415.312683	-201.928680
2841.608330	-82.232613	418.585632	-206.662781
2841.612583	-82.758621	426.475769	-218.410278
2841.615971	-83.284630	430.683807	-225.189941
2841.619208	-83.343079	434.365845	-231.618927
2841.622508	-83.459969	437.229675	-238.398605
2841.625462	-83.869080	440.853302	-244.710678
2841.628741	-83.985970	444.243134	-250.204559
2841.632085	-84.628876	448.684967	-258.562256
2841.635407	-85.330215	452.016357	-265.692566
2841.638748	-85.447105	455.347717	-272.238434
2841.641652	-86.265343	458.503815	-280.420807
2841.644983	-86.849800	463.471649	-287.784912
2841.648315	-87.492691	466.803040	-295.265930
2841.651654	-87.901810	470.075989	-303.448273
2841.654985	-88.310928	473.758026	-311.689056
2841.658341	-88.427818	476.914062	-320.455872
2841.661650	-89.830505	481.823486	-329.222687
2841.664990	-90.239624	485.388672	-337.931030
2841.668353	-90.999420	487.375793	-346.756287
2841.671651	-91.291641	491.759216	-356.458221
2841.675003	-92.109879	495.090576	-365.926361
2841.678317	-93.103447	498.188202	-375.920502
2841.681651	-93.863235	500.642914	-384.804199
2841.684978	-94.389252	502.805389	-396.493256
2841.688319	-94.506142	506.136749	-406.136749
2841.691647	-95.791939	508.416138	-417.767395
2841.694979	-96.142609	511.338379	-429.398010
2841.698312	-97.077736	513.442444	-440.210388
2841.701644	-97.253067	515.838684	-451.665680
2841.704980	-98.597313	517.767395	-464.465240
2841.708311	-99.240204	519.754578	-477.907654
2841.711671	-100.000000	521.040344	-490.298096
2841.714984	-100.759796	522.559937	-503.097595
2841.719241	-101.753365	522.910583	-531.385132
2841.722537	-102.337814	523.962585	-544.769165
2841.725825	-102.630043	523.378113	-559.731140
2841.729160	-103.039154	523.495056	-574.108704
2841.732517	-103.682053	523.144348	-588.369385
2841.735420	-104.208061	521.390991	-604.558777
2841.738734	-104.091179	519.462280	-619.286987
2841.742095	-104.909409	517.066040	-636.119202
2841.745425	-105.318520	515.780273	-650.964355
2841.748755	-105.435417	512.448853	-667.153687
2841.751645	-105.902985	510.286377	-683.518433
2841.755001	-107.188774	506.078339	-701.461121
2841.758312	-106.954994	501.987122	-717.124512
2841.761642	-107.481003	496.902405	-733.196960
2841.764977	-107.831680	492.226807	-749.970764
2841.768304	-107.656334	486.732910	-767.445923
2841.771639	-108.533028	480.070129	-784.804199
2841.774976	-109.059021	472.589111	-800.993530
2841.778306	-109.234367	465.049683	-818.001160
2841.781636	-110.344826	457.159576	-835.301025
2841.784970	-110.111046	449.503235	-852.074829
2841.788303	-110.929283	440.035065	-869.316223
2841.791638	-111.513733	430.508484	-886.616028
2841.794973	-111.922852	420.455872	-902.571594
2841.798314	-112.039742	410.286377	-919.111633
2841.801634	-112.741089	399.181763	-936.586792
2841.804976	-113.150200	387.258911	-954.354187
2841.808304	-113.383987	375.043854	-968.907043
2841.811633	-113.793098	361.250732	-985.797791
2841.814970	-113.793098	347.808289	-1001.811768
2841.818303	-114.494446	333.547638	-1016.832275
2841.821639	-114.962006	319.345398	-1033.606079
2841.824968	-114.845123	303.331360	-1047.983643
2841.829638	-115.838692	271.127991	-1078.492065
2841.832522	-115.254234	253.886597	-1093.571045
2841.835840	-115.721802	236.820572	-1107.188843
2841.839192	-115.780243	219.579193	-1121.566284
2841.842582	-116.014030	200.467560	-1132.963135
2841.845416	-115.897133	181.531265	-1146.288696
2841.848789	-115.897133	160.841614	-1159.146729
2841.852062	-115.663353	141.379303	-1171.303345
2841.855388	-115.254234	121.274117	-1181.355957
2841.858727	-115.195786	100.058449	-1189.304565
2841.861628	-114.962006	79.894798	-1198.772583
2841.864962	-114.436005	58.796024	-1208.591431
2841.868295	-113.909996	37.931034	-1215.488037
2841.871633	-113.150200	16.072474	-1223.728882
2841.874968	-112.273529	-5.961426	-1228.170654
2841.878293	-111.572182	-27.235535	-1232.671021
2841.881625	-111.104622	-48.626534	-1236.820557
2841.884970	-110.461723	-69.959084	-1238.924561
2841.888294	-109.468147	-90.356514	-1241.788330
2841.891626	-108.474579	-110.695503	-1243.717041
2841.894960	-108.299240	-131.502045	-1243.541870
2841.898294	-107.656334	-151.256577	-1241.729980
2841.901627	-107.130341	-171.478668	-1241.788330
2841.904972	-105.786087	-190.765625	-1238.223267
2841.908294	-105.260086	-209.994156	-1234.891846
2841.911633	-104.558739	-228.521317	-1229.631836
2841.914992	-103.740501	-245.879608	-1223.611938
2841.918290	-103.331390	-263.413208	-1217.767456
2841.921624	-102.688492	-279.953247	-1209.994141
2841.924961	-102.396263	-296.960815	-1202.396240
2841.928311	-101.344238	-313.033325	-1193.746338
2841.931628	-100.876678	-327.703094	-1183.693848
2841.934957	-99.532440	-342.723572	-1171.537109
2841.939171	-98.889534	-370.485077	-1148.568115
2841.942491	-97.779076	-383.927551	-1135.359497
2841.945916	-97.311516	-396.610168	-1121.624756
2841.949222	-97.077736	-408.182343	-1105.318604
2841.952566	-97.136177	-419.403839	-1092.226807
2841.955376	-96.551720	-430.566925	-1076.271118
2841.958728	-95.908829	-441.437775	-1061.426025
2841.962043	-95.090591	-450.672089	-1042.723511
2841.965379	-93.746346	-460.198730	-1026.417236
2841.968288	-93.687904	-468.848602	-1009.818848
2841.971654	-92.343658	-477.264740	-991.057861
2841.974956	-91.642311	-486.148437	-973.933411
2841.978287	-90.882523	-492.577454	-955.172424
2841.981622	-90.005844	-499.357086	-936.060791
2841.984956	-89.596725	-505.727631	-916.423157
2841.988279	-87.668030	-510.111053	-898.597351
2841.991622	-87.668030	-514.260681	-879.076599
2841.994954	-86.499123	-519.286987	-858.971436
2841.998286	-85.564003	-522.384521	-840.210449
2842.001617	-84.570427	-526.300415	-820.280579
2842.004952	-83.869080	-529.105835	-801.227356
2842.008306	-82.700172	-530.391602	-780.596191
2842.011615	-82.583282	-533.255371	-760.549377
2842.014953	-81.765053	-534.190491	-742.489746
2842.018279	-80.654587	-535.300964	-723.261230
2842.021618	-79.310349	-535.651672	-706.195190
2842.024946	-79.251900	-536.002319	-686.791382
2842.028277	-78.199883	-535.885437	-669.842224
2842.031614	-77.147865	-535.651672	-650.496765
2842.034944	-76.563416	-534.658081	-632.963196
2842.038286	-75.686737	-533.196960	-616.423157
2842.041617	-75.920517	-531.969604	-599.649353
2842.044947	-74.576271	-529.924011	-582.466431
2842.049142	-74.167160	-526.300415	-550.613708
2842.052489	-73.933372	-523.202820	-535.593201
2842.055873	-72.764465	-521.390991	-520.338989
2842.059214	-72.764465	-519.228516	-506.078339
2842.062470	-71.654007	-515.838684	-491.700745
2842.065367	-71.361771	-513.325562	-477.732330
2842.068706	-71.361771	-510.870850	-464.699036
2842.072036	-71.420219	-507.013458	-450.321442
2842.075389	-70.835770	-503.974304	-437.521942
2842.078274	-70.192871	-500.467590	-424.371704
2842.081607	-70.134422	-496.902405	-411.864410
2842.084945	-70.017532	-492.577454	-399.473999
2842.088291	-69.725304	-490.298096	-388.310944
2842.091604	-69.199303	-485.973114	-376.388062
2842.094943	-69.199303	-481.940369	-364.289886
2842.098269	-68.848625	-479.134979	-353.243713
2842.101611	-68.147285	-473.874939	-342.431335
2842.104936	-67.562828	-469.140869	-331.911163
2842.108275	-67.504379	-465.751038	-321.566345
2842.111616	-67.387489	-461.133850	-311.513733
2842.114941	-67.212158	-457.451782	-301.811829
2842.118310	-66.803040	-452.776154	-291.642303
2842.121611	-66.627708	-448.334320	-282.641724
2842.124937	-66.218582	-444.126221	-273.232025
2842.128265	-65.458801	-440.444183	-264.991241
2842.131624	-65.225014	-436.353027	-255.932205
2842.134938	-64.932785	-432.495605	-247.340729
2842.138270	-64.406784	-428.287567	-239.041489
2842.141602	-63.997662	-424.313263	-231.502060
2842.144943	-63.822330	-420.163635	-224.137924
2842.148273	-63.062538	-416.306244	-216.423157
2842.151606	-63.004089	-411.805969	-210.461716
2842.154933	-62.828754	-408.591461	-203.740509
2842.159133	-61.835182	-400.701324	-190.648743
2842.162591	-62.010521	-397.077728	-184.745758
2842.165885	-62.010521	-392.343658	-179.018112
2842.169123	-61.718292	-389.304504	-173.465805
2842.172448	-61.542957	-385.388672	-166.978378
2842.175395	-60.900055	-382.115723	-163.004089
2842.178686	-61.016949	-377.966095	-157.393341
2842.182026	-61.075394	-376.095856	-153.009933
2842.185358	-60.900055	-372.180023	-148.217422
2842.188285	-60.140270	-368.556396	-143.424896
2842.191593	-60.783165	-364.757446	-138.632385
2842.194932	-59.263588	-361.776733	-134.833435
2842.198261	-60.081821	-360.081818	-131.151382
2842.201598	-60.198711	-355.464661	-125.891289
2842.204926	-59.906490	-352.425476	-123.202805
2842.208315	-59.906490	-349.795441	-119.696083
2842.211609	-59.380478	-346.697845	-116.423141
2842.214929	-59.731148	-344.067780	-113.325539
2842.218285	-59.731148	-341.087067	-109.935715
2842.221591	-59.438927	-338.223267	-106.954994
2842.224931	-59.438927	-336.528351	-103.857399
2842.228261	-59.848042	-333.430756	-100.409111
2842.231608	-59.555817	-331.151367	-97.369957
2842.234929	-58.912914	-328.287567	-95.207481
2842.238258	-58.796024	-325.599060	-92.752777
2842.241599	-58.562244	-322.969025	-89.246056
2842.244925	-58.445351	-321.858582	-86.849800
2842.248291	-58.737583	-318.702515	-84.161308
2842.251595	-58.679134	-316.072449	-81.239037
2842.254921	-57.977791	-314.436005	-79.894798
2842.258254	-58.211571	-312.507294	-77.498535
2842.261607	-58.679134	-310.286377	-74.634720
2842.265890	-57.744007	-306.253662	-69.900642
