time (s)	magX	magY	magZ
2382.217597	40.035065	540.677979	-729.281128
2382.220928	40.853302	537.054321	-743.249573
2382.224264	42.372883	533.839844	-755.114014
2382.228527	44.944477	525.774414	-781.355957
2382.231878	46.288719	522.209229	-793.044983
2382.235118	47.165401	518.059631	-808.240784
2382.238439	47.925190	513.150208	-820.105164
2382.241786	49.444767	508.474579	-833.080078
2382.244686	50.146114	503.682037	-846.580994
2382.248066	51.256573	497.954407	-858.269958
2382.251359	52.776154	492.460541	-872.121521
2382.254720	53.652836	485.447113	-886.616028
2382.257594	55.230862	479.368774	-898.538879
2382.260934	56.633549	471.537109	-912.858032
2382.264256	57.393337	463.530121	-926.417236
2382.267619	58.094681	455.406189	-940.268799
2382.270927	60.374050	447.516052	-953.302185
2382.274264	61.835182	438.457062	-965.400330
2382.277597	62.945644	429.748688	-979.310303
2382.280925	64.582115	420.163635	-994.856812
2382.284260	65.751022	409.351257	-1008.649902
2382.287597	67.621269	399.006439	-1022.501465
2382.290920	69.549973	387.843384	-1037.521973
2382.294256	71.127991	375.628296	-1049.970825
2382.297597	72.822914	364.582123	-1063.939209
2382.300927	74.868500	351.490356	-1078.083008
2382.304261	76.329628	337.814148	-1090.940918
2382.307591	78.141441	325.131500	-1105.026367
2382.310928	80.479256	310.227936	-1118.001221
2382.314255	81.472816	296.434845	-1130.800781
2382.317591	84.044418	282.232605	-1143.950928
2382.320926	85.564003	266.861481	-1154.880127
2382.324255	86.908241	251.724152	-1168.205688
2382.327591	88.194038	236.879013	-1179.661011
2382.330926	89.713615	221.391006	-1191.057861
2382.334323	91.466980	205.201630	-1199.766235
2382.338858	93.804794	172.939804	-1220.923462
2382.341783	94.798363	156.691986	-1230.274658
2382.345109	95.558151	140.736420	-1238.983032
2382.348464	96.201050	124.196373	-1248.451172
2382.351793	97.136177	107.481003	-1256.166016
2382.354701	97.428406	91.350090	-1262.945679
2382.358036	98.363533	74.751610	-1269.783813
2382.361413	98.480423	58.620689	-1277.790771
2382.364684	98.655754	43.074226	-1282.466431
2382.367583	99.006424	26.300409	-1288.252441
2382.370922	99.064873	10.578609	-1292.577515
2382.374255	98.889534	-5.902981	-1296.785522
2382.377618	98.772644	-22.326126	-1302.688477
2382.380914	98.889534	-38.106369	-1305.201660
2382.384246	98.655754	-54.471069	-1308.591431
2382.387589	98.129745	-70.601990	-1309.584961
2382.390915	98.012856	-86.440674	-1312.799561
2382.394247	97.779076	-101.987144	-1313.734619
2382.397586	97.253067	-118.351837	-1315.429565
2382.400913	96.960846	-133.839859	-1316.247803
2382.404249	96.317940	-149.620102	-1314.319092
2382.407582	95.967270	-165.751022	-1310.812378
2382.410917	96.201050	-180.829926	-1310.169556
2382.414244	96.376389	-196.201050	-1306.954956
2382.417580	95.733490	-211.805969	-1303.974243
2382.420936	95.675049	-226.651077	-1299.649292
2382.424240	94.798363	-241.905304	-1294.272339
2382.427593	95.149033	-256.458221	-1292.635864
2382.430908	94.213905	-271.011108	-1286.499146
2382.434248	94.330803	-285.563995	-1278.842773
2382.437580	93.687904	-299.415527	-1272.355347
2382.440915	92.694328	-313.793121	-1262.828735
2382.444247	92.168327	-326.534210	-1255.815308
2382.448420	91.291641	-352.483917	-1236.586792
2382.451787	90.531853	-364.932800	-1227.586182
2382.455106	90.064285	-376.914093	-1214.552856
2382.458512	89.012268	-387.434235	-1203.506714
2382.461361	88.077148	-398.480408	-1193.454102
2382.464709	87.375801	-408.942139	-1182.407959
2382.468027	86.966690	-419.345428	-1171.069580
2382.471341	85.037987	-429.222687	-1158.036255
2382.474669	84.161308	-438.047943	-1145.178223
2382.477574	82.349503	-447.282318	-1132.787842
2382.480903	81.239037	-454.821716	-1120.689697
2382.484242	79.953239	-462.945648	-1106.721191
2382.487575	78.550552	-470.601990	-1094.915283
2382.490907	76.914085	-477.966125	-1082.466431
2382.494236	75.511398	-485.271790	-1067.679687
2382.497576	74.225601	-491.116272	-1053.302246
2382.500905	72.121567	-497.486816	-1039.801270
2382.504234	70.601990	-503.857361	-1027.761597
2382.507589	68.907074	-507.831665	-1014.552856
2382.510900	67.329048	-512.857971	-998.597351
2382.514242	65.809471	-517.708923	-986.031555
2382.517571	64.114555	-523.085937	-973.231995
2382.520905	62.127411	-526.358826	-959.789551
2382.524242	60.607834	-530.216248	-944.009277
2382.527575	58.620689	-533.547668	-931.385132
2382.530904	57.276447	-537.288147	-918.176453
2382.534233	56.282879	-539.859741	-903.448303
2382.537571	54.412621	-542.723572	-888.310913
2382.540899	52.659260	-544.827576	-874.810059
2382.544238	51.431911	-547.457642	-860.432556
2382.547567	50.087666	-548.977173	-846.990112
2382.550941	48.801868	-551.315002	-831.326660
2382.555531	46.464054	-554.588013	-803.097656
2382.558445	45.061367	-555.347717	-788.252502
2382.561792	44.360023	-556.399780	-772.822876
2382.565158	42.782001	-557.393372	-759.029846
2382.568050	42.022209	-557.627075	-744.184692
2382.571333	40.853302	-557.802429	-730.859131
2382.574688	40.035065	-558.270020	-716.364746
2382.577989	38.866158	-558.211548	-701.987122
2382.581327	37.521915	-558.036255	-688.778503
2382.584233	36.528347	-557.568665	-674.400940
2382.587562	35.417885	-556.691956	-663.004089
2382.590905	34.424313	-556.575134	-648.217468
2382.594271	33.430744	-554.880188	-636.353027
2382.597566	32.437172	-554.354187	-623.728821
2382.600899	30.976036	-553.652832	-611.689087
2382.604225	30.800701	-553.009949	-599.064880
2382.607559	29.631794	-551.373474	-588.427856
2382.610897	27.995323	-550.496765	-576.504944
2382.614226	27.001753	-548.743408	-566.744629
2382.617566	26.241964	-546.873169	-555.873779
2382.620895	24.897720	-545.879578	-545.236694
2382.624286	23.728813	-543.424866	-535.476379
2382.627569	22.501461	-541.729980	-526.300415
2382.630895	21.975452	-539.742859	-516.247803
2382.634226	20.689655	-538.457031	-507.656342
2382.637591	19.345411	-537.463501	-498.597290
2382.640887	18.059614	-536.002319	-490.473419
2382.644228	17.358271	-533.547668	-480.128571
2382.647562	16.656927	-530.508484	-473.582703
2382.650896	15.604909	-529.164246	-465.049683
2382.654220	14.669784	-527.936890	-456.925781
2382.657556	13.676212	-525.540649	-449.620117
2382.662256	11.279953	-522.150818	-434.891907
2382.665097	10.929281	-520.222107	-426.767975
2382.668504	9.994155	-517.299866	-419.929871
2382.671859	8.942139	-516.773804	-412.098175
2382.675084	8.357686	-513.384033	-405.143219
2382.677985	7.597896	-511.279968	-398.129761
2382.681348	7.071887	-509.526581	-391.642303
2382.684646	5.902981	-507.481018	-384.278198
2382.687978	5.552309	-505.610748	-376.212738
2382.690883	5.201637	-502.922241	-370.601990
2382.694218	4.909410	-501.168915	-364.114532
2382.697552	4.617183	-499.064880	-357.627136
2382.700880	3.623612	-497.019287	-351.315033
2382.704217	2.513150	-494.213928	-343.892456
2382.707548	2.630041	-491.467010	-337.521912
2382.710890	2.337814	-489.479828	-332.495605
2382.714216	1.636470	-486.966705	-326.241974
2382.717556	0.935126	-484.628876	-319.520752
2382.720881	0.175336	-482.583282	-314.377533
2382.724258	-0.584454	-480.187042	-308.942139
2382.727553	-0.759790	-478.375183	-304.383392
2382.730889	-1.052016	-474.342499	-299.590881
2382.734216	-2.220923	-473.407349	-294.739929
2382.737544	-2.513150	-470.777313	-290.239624
2382.740878	-2.454705	-468.848602	-285.622467
2382.744214	-3.156049	-467.504395	-281.239044
2382.747547	-3.331385	-465.283447	-277.673859
2382.750880	-4.266511	-464.114563	-274.400940
2382.754207	-4.500292	-462.185852	-270.660431
2382.757544	-4.734074	-460.607819	-267.387482
2382.760882	-5.552309	-459.789612	-264.231445
2382.764218	-5.902981	-458.854492	-261.659851
2382.767540	-5.727644	-456.633575	-258.620697
2382.771752	-7.013443	-454.471069	-253.711273
2382.775173	-7.481005	-452.308594	-251.607254
2382.778473	-7.948568	-450.730560	-249.795441
2382.781745	-8.065459	-450.438354	-247.340729
2382.785061	-8.708358	-450.204559	-245.119812
2382.787972	-9.292811	-448.684967	-243.132660
2382.791296	-9.760374	-447.165405	-241.145538
2382.794635	-9.818819	-446.288727	-239.099930
2382.797971	-10.929281	-444.827606	-237.755707
2382.800879	-10.812390	-444.593811	-235.593231
2382.804212	-11.864407	-443.366425	-233.138519
2382.807545	-11.572180	-441.846893	-231.677383
2382.810899	-12.039742	-441.028656	-229.631805
2382.814209	-12.507306	-440.268860	-228.872009
2382.817544	-12.448860	-439.684387	-226.183502
2382.820871	-12.624197	-438.632385	-224.722382
2382.824233	-13.091760	-437.521942	-222.267670
2382.827541	-12.390414	-436.820557	-220.981888
2382.830869	-13.442431	-435.242554	-219.286972
2382.834203	-13.383986	-435.242554	-218.234940
2382.837541	-13.267096	-434.482758	-215.604904
2382.840906	-13.968439	-432.846313	-214.202209
2382.844203	-13.909994	-432.904724	-212.331970
2382.847534	-14.202221	-432.437195	-211.689072
2382.850867	-13.968439	-431.326721	-210.637039
2382.854223	-13.734658	-430.859131	-209.234360
2382.857536	-14.377557	-430.566925	-207.656342
2382.860875	-15.020455	-429.573334	-207.364105
2382.864203	-14.202221	-428.404419	-206.428986
2382.867533	-14.319112	-428.287567	-206.662781
2382.870873	-14.611338	-428.287567	-205.435425
2382.874203	-14.202221	-429.398010	-204.734070
2382.877538	-14.728229	-428.287567	-205.844543
2382.881791	-14.962010	-428.229095	-205.844543
2382.885165	-14.552893	-427.995361	-206.428986
2382.888382	-14.903564	-428.346008	-206.721207
2382.891712	-15.137346	-428.930481	-206.487442
2382.895050	-15.546463	-429.339539	-207.422562
2382.897967	-16.072474	-430.625336	-208.182358
2382.901288	-16.540035	-430.859131	-209.935715
2382.904649	-16.306253	-431.326721	-211.513733
2382.907993	-16.189363	-431.618927	-211.572174
2382.910861	-16.949154	-431.794250	-213.267090
2382.914219	-17.475161	-432.437195	-214.319107
2382.917537	-16.890707	-433.196960	-215.546463
2382.920868	-17.241379	-434.132111	-216.656921
2382.924193	-16.656927	-435.300964	-218.118042
2382.927546	-17.182934	-435.827026	-219.228531
2382.930862	-17.299826	-436.294556	-220.981888
2382.934193	-17.767387	-437.580353	-222.150772
2382.937527	-17.299826	-437.755676	-224.021027
2382.940861	-18.001169	-438.281738	-226.066635
2382.944189	-17.942724	-439.625916	-226.709534
2382.947527	-17.767387	-441.028656	-228.930450
2382.950864	-18.001169	-441.671509	-229.865570
2382.954199	-18.351841	-443.191101	-231.326706
2382.957524	-17.533606	-443.249573	-232.554047
2382.960860	-17.825832	-444.301544	-235.710114
2382.964196	-17.767387	-444.827606	-236.762115
2382.967525	-17.942724	-446.230255	-238.106369
2382.970867	-17.942724	-447.632996	-239.859726
2382.974195	-17.708942	-448.626526	-242.255997
2382.977523	-17.592052	-449.970764	-244.126251
2382.980859	-17.007599	-451.022827	-246.580963
2382.984187	-17.358271	-451.782562	-249.386337
2382.988451	-17.358271	-453.945068	-253.126831
2382.991705	-17.182934	-455.815308	-255.639984
2382.995043	-17.650497	-456.633575	-258.211578
2382.998371	-16.890707	-458.971344	-262.010529
2383.001754	-16.949154	-459.322021	-264.640564
2383.004617	-17.124489	-461.893616	-268.088837
2383.007973	-17.416716	-462.536530	-272.004669
2383.011301	-17.066044	-465.225037	-274.810059
2383.014642	-16.949154	-466.627686	-279.719482
2383.017518	-16.832262	-468.439545	-283.226166
2383.020856	-17.007599	-469.900665	-286.908234
2383.024187	-16.656927	-471.887787	-291.466980
2383.027523	-16.832262	-473.524231	-296.084167
2383.030850	-17.007599	-475.920532	-301.285797
2383.034186	-17.299826	-479.777893	-305.844543
2383.037552	-17.124489	-481.648163	-310.870850
2383.040849	-17.124489	-483.985992	-315.955597
2383.044189	-17.124489	-485.856262	-322.033905
2383.047518	-16.656927	-488.135590	-326.826416
2383.050853	-17.416716	-490.590271	-332.670959
2383.054178	-17.592052	-492.869659	-338.749268
2383.057516	-17.884277	-495.908844	-344.184692
2383.060846	-17.475161	-497.369965	-351.139679
2383.064184	-17.767387	-499.240204	-356.224426
2383.067513	-17.592052	-502.045593	-362.594971
2383.070849	-17.767387	-504.324951	-368.731750
2383.074185	-17.942724	-506.896545	-375.628296
2383.077514	-16.890707	-507.890137	-382.291046
2383.080869	-17.416716	-510.227905	-388.310944
2383.084175	-17.182934	-512.974854	-394.798370
2383.087528	-17.708942	-514.728210	-400.701324
2383.090851	-17.942724	-517.416687	-406.896545
2383.094177	-17.358271	-518.994751	-414.202209
2383.098806	-16.540035	-523.845703	-429.456482
2383.101720	-17.241379	-525.482178	-435.885437
2383.105074	-16.540035	-527.293945	-443.074219
2383.108446	-16.364700	-529.573364	-450.789032
2383.111775	-15.897136	-532.086487	-457.101105
2383.114622	-15.780245	-533.781433	-464.874359
2383.117964	-15.371127	-535.476379	-473.524231
2383.121268	-15.488018	-538.106384	-482.524811
2383.124607	-14.669784	-538.983032	-491.057861
2383.127515	-15.195791	-541.379333	-499.415527
2383.130863	-13.909994	-542.898865	-509.643494
2383.134174	-14.143775	-545.411987	-517.942688
2383.137515	-13.559322	-546.171814	-528.287537
2383.140837	-13.325541	-548.918762	-537.112793
2383.144180	-13.559322	-551.081238	-548.451172
2383.147508	-12.857978	-551.957947	-557.451782
2383.150845	-13.383986	-554.704834	-568.673279
2383.154176	-13.500876	-555.347717	-579.018127
2383.157505	-12.624197	-557.860901	-591.174744
2383.160841	-13.267096	-558.562256	-602.279358
2383.164173	-13.091760	-559.672668	-614.611328
2383.167529	-12.331969	-561.484497	-626.534180
2383.170838	-12.916424	-562.536499	-638.749268
2383.174194	-12.916424	-563.997681	-651.022827
2383.177516	-13.091760	-564.874390	-663.880798
2383.180837	-12.974869	-565.634155	-675.862061
2383.184168	-13.734658	-566.744629	-688.778503
2383.187501	-13.267096	-566.043213	-702.454712
2383.190838	-13.617767	-566.919922	-715.487976
2383.194165	-13.091760	-567.270630	-728.287537
2383.197507	-13.267096	-567.562805	-740.385742
2383.200839	-13.442431	-567.621277	-753.886597
2383.204164	-13.676212	-567.329041	-766.803040
2383.208877	-13.325541	-565.692566	-792.635864
2383.211763	-13.267096	-566.043213	-806.721191
2383.215109	-12.741087	-566.277039	-819.579224
2383.218466	-13.208650	-563.296326	-832.904724
2383.221764	-12.741087	-562.945679	-844.885986
2383.224596	-11.981297	-561.601379	-859.614258
2383.227921	-12.098188	-559.146667	-872.647583
2383.231268	-11.922852	-559.029846	-886.206909
2383.234584	-11.630626	-555.756836	-899.590881
2383.237920	-11.163063	-554.178833	-913.150208
2383.240831	-10.929281	-551.665710	-925.774414
2383.244167	-10.403274	-549.094116	-938.807678
2383.247501	-10.695500	-545.587402	-952.483948
2383.250834	-10.520164	-543.074219	-965.809448
2383.254163	-9.585038	-539.859741	-979.544189
2383.257497	-8.942139	-535.125610	-991.876099
2383.260837	-9.000585	-530.859131	-1005.844482
2383.264168	-8.883694	-527.936890	-1018.644043
2383.267537	-8.474577	-522.618347	-1032.495605
2383.270832	-7.773232	-518.059631	-1044.827515
2383.274165	-8.591467	-512.507324	-1059.380493
2383.277501	-7.188778	-507.481018	-1072.998291
2383.280833	-7.071887	-501.870239	-1086.148437
2383.284159	-7.305669	-495.149048	-1099.473999
2383.287494	-6.312099	-489.304504	-1112.215088
2383.290824	-6.954997	-482.232605	-1123.494995
2383.294162	-6.604325	-473.115173	-1136.995850
2383.297532	-6.662770	-465.166565	-1150.438354
2383.300826	-6.838106	-457.744019	-1162.302734
2383.304169	-7.013443	-449.795441	-1173.290405
2383.307489	-6.721216	-440.736389	-1184.804199
2383.310823	-7.071887	-431.092926	-1196.668579
2383.314154	-7.130333	-422.735260	-1207.773193
2383.318421	-7.247224	-402.746918	-1225.599121
2383.321756	-8.240795	-391.934540	-1238.164795
2383.325084	-8.474577	-381.940399	-1245.821167
2383.328345	-8.649913	-371.654022	-1254.587891
2383.331665	-9.117476	-360.490936	-1262.185913
2383.334577	-9.234365	-349.503204	-1270.426636
2383.337914	-9.409702	-337.931030	-1277.673950
2383.341291	-9.760374	-326.125061	-1284.395142
2383.344576	-9.351256	-314.260681	-1291.174805
2383.347488	-9.994155	-302.571594	-1297.253052
2383.350816	-9.526592	-290.648743	-1302.279419
2383.354152	-10.169491	-278.375214	-1308.065430
2383.357484	-9.877264	-265.634125	-1311.279907
2383.360820	-9.409702	-253.477509	-1315.020508
2383.364155	-9.701928	-240.561081	-1319.696045
2383.367489	-9.175920	-228.930450	-1322.033936
2383.370819	-9.643483	-215.371124	-1324.430176
2383.374148	-9.468147	-202.454712	-1326.943359
2383.377487	-9.643483	-189.187607	-1327.878418
2383.380819	-9.117476	-175.394516	-1330.216187
2383.384162	-9.117476	-161.542953	-1329.748779
2383.387481	-8.942139	-147.516068	-1329.573364
2383.390820	-8.299240	-133.138519	-1327.293945
2383.394148	-8.533022	-118.644073	-1328.462891
2383.397476	-8.357686	-104.266510	-1327.293945
2383.400811	-8.007013	-90.064285	-1326.534180
2383.404150	-8.007013	-75.336060	-1323.202759
2383.407478	-8.065459	-60.607834	-1321.741699
2383.410818	-8.123904	-45.821156	-1318.819458
2383.414163	-8.007013	-30.450027	-1315.371094
2383.417485	-8.474577	-15.780245	-1310.929321
2383.420811	-8.474577	-0.876680	-1306.136841
2383.424148	-8.708358	15.137346	-1300.526001
2383.428416	-9.234365	46.113384	-1290.648804
2383.431753	-9.643483	61.659847	-1284.278198
2383.434999	-9.994155	77.030975	-1278.141357
2383.438335	-10.169491	91.466980	-1272.121582
2383.441660	-10.929281	106.487427	-1264.582153
2383.444613	-11.747516	121.624779	-1257.159546
2383.447913	-12.098188	136.352997	-1249.503174
2383.451235	-12.507306	150.964340	-1241.379395
2383.454589	-13.676212	164.874344	-1232.027954
2383.457483	-14.085330	179.135010	-1224.371704
2383.460811	-14.260666	192.869659	-1215.488037
2383.464148	-14.669784	205.786087	-1206.428955
2383.467508	-15.137346	218.877838	-1198.714111
2383.470810	-16.014027	231.735825	-1187.083496
2383.474142	-16.306253	244.009354	-1178.024536
2383.477474	-16.890707	256.165985	-1170.017578
2383.480805	-16.890707	268.205750	-1161.250732
2383.484140	-17.124489	279.427246	-1150.379883
2383.487469	-17.825832	291.057861	-1139.625977
2383.490804	-17.533606	301.870239	-1128.988892
2383.494142	-17.708942	312.624207	-1119.988403
2383.497475	-18.001169	322.384583	-1108.942139
2383.500829	-17.767387	332.787842	-1099.707764
2383.504137	-18.059614	342.665100	-1089.187622
2383.507470	-18.176504	352.367035	-1077.966064
2383.510808	-17.592052	362.127411	-1067.562866
2383.514133	-18.001169	370.952667	-1056.692017
2383.517468	-17.942724	379.836334	-1046.230347
2383.520804	-17.475161	388.778503	-1036.119263
2383.524141	-18.351841	397.311523	-1025.189941
2383.527463	-17.825832	405.669220	-1012.741089
2383.530824	-17.825832	413.559326	-1002.688477
2383.534134	-17.767387	421.449432	-992.226807
2383.538739	-17.592052	435.476349	-968.497925
2383.541647	-18.001169	444.418488	-957.510193
2383.544997	-18.176504	451.256561	-947.691467
2383.548361	-18.234951	457.451782	-935.476318
2383.551676	-18.351841	464.056122	-924.196350
2383.554594	-18.760958	470.309784	-912.858032
2383.557910	-19.228521	476.738739	-902.805420
2383.561255	-18.994740	483.635284	-891.350098
2383.564557	-19.637638	488.953827	-880.888367
2383.567893	-19.988310	493.570984	-870.134460
2383.570799	-20.280537	499.298676	-858.094666
2383.574153	-20.222092	505.201630	-847.925171
2383.577469	-20.923437	508.825256	-836.528320
2383.580803	-21.800117	513.150208	-826.826355
2383.584130	-21.624781	517.533569	-815.546387
2383.587467	-22.384571	521.098755	-805.435364
2383.590796	-22.793688	524.079468	-794.447693
2383.594126	-23.085915	527.293945	-784.570435
2383.597461	-22.969025	531.502075	-774.517822
2383.600797	-23.319696	534.424316	-764.815918
2383.604127	-23.611923	537.112793	-755.815308
2383.607458	-24.313267	539.158386	-746.171814
2383.610795	-24.196377	542.314453	-737.112793
2383.614123	-24.605494	544.476868	-728.930481
